WAVELENGTH,AR-AR-T-00AOI,AR-AR-T-30AOI,AR-AR-T-45AOI,AR-AR-T-55AOI,DLC-AR-T-00AOI,DLC-AR-T-00AOI,DLC-AR-T-00AOI,DLC-AR-T-00AOI,AR-R-00AOI,AR-R-30AOI,DLC-R-00AOI
6,50.937101,63.342751,68.03011,68.966801,56.777261,59.29968,61.671207,63.388909,21.908682,16.50375,21.918035
6.002,50.986614,63.412618,68.095091,69.027818,56.831979,59.361217,61.730941,63.442696,21.867908,16.466549,21.888284
6.004,51.031745,63.479452,68.155974,69.08463,56.890328,59.427412,61.79475,63.499886,21.83034,16.430496,21.857648
6.006,51.072955,63.54394,68.21339,69.137799,56.953049,59.499118,61.863476,63.561206,21.795753,16.395148,21.827024
6.008,51.110713,63.605544,68.267661,69.187884,57.015158,59.569757,61.931019,63.621243,21.764016,16.361199,21.797476
6.01,51.144431,63.663687,68.319064,69.235401,57.071655,59.632737,61.991263,63.67457,21.735532,16.329364,21.770062
6.012,51.173666,63.718091,68.367263,69.280021,57.122609,59.688216,62.044369,63.7213,21.71064,16.299726,21.745845
6.014,51.199295,63.76927,68.412504,69.321889,57.169873,59.738571,62.09253,63.76341,21.688748,16.271921,21.72352
6.016,51.221483,63.817859,68.45542,69.361592,57.214012,59.784417,62.136287,63.801441,21.669754,16.245679,21.702879
6.018,51.24013,63.864024,68.496081,69.399139,57.255811,59.826748,62.176531,63.836215,21.65355,16.22092,21.683583
6.02,51.255492,63.906834,68.533358,69.433385,57.295737,59.866347,62.213992,63.868319,21.639948,16.198014,21.665694
6.022,51.268905,63.947907,68.569375,69.466562,57.331904,59.900459,62.246151,63.895595,21.627993,16.17633,21.649608
6.024,51.280785,63.989141,68.606607,69.501265,57.362231,59.926023,62.270211,63.915653,21.617265,16.155121,21.635314
6.026,51.292371,64.03055,68.64527,69.537776,57.385806,59.941943,62.285168,63.927642,21.606625,16.134437,21.622985
6.028,51.303444,64.071455,68.684406,69.575069,57.403718,59.949734,62.292407,63.932744,21.596269,16.114522,21.612317
6.03,51.314199,64.113262,68.725344,69.614401,57.416672,59.94982,62.292328,63.931285,21.58605,16.094685,21.603039
6.032,51.323885,64.157147,68.769235,69.656872,57.425019,59.942123,62.284842,63.923146,21.576472,16.074373,21.595546
6.034,51.331959,64.201606,68.814959,69.701521,57.425877,59.92234,62.265744,63.904485,21.567975,16.054576,21.590161
6.036,51.341908,64.247861,68.863265,69.748925,57.4227,59.895971,62.240414,63.880239,21.557429,16.034361,21.584494
6.038,51.354152,64.298229,68.915733,69.800379,57.420892,59.871382,62.217028,63.857896,21.54439,16.012096,21.578215
6.04,51.371532,64.354248,68.973432,69.856783,57.42389,59.853836,62.200743,63.842169,21.525324,15.986719,21.56875
6.042,51.393673,64.414737,69.035573,69.917515,57.428792,59.838774,62.187116,63.82898,21.500672,15.959085,21.556542
6.044,51.420035,64.479576,69.101991,69.982338,57.435984,59.827042,62.17692,63.819074,21.471087,15.929183,21.54234
6.046,51.451211,64.548779,69.172607,70.05108,57.446208,59.820063,62.171481,63.813707,21.435703,15.8969,21.525888
6.048,51.488039,64.623688,69.249241,70.125652,57.456839,59.813048,62.16622,63.808709,21.393233,15.861918,21.507235
6.05,51.529876,64.703502,69.330845,70.204986,57.469154,59.808306,62.163355,63.806085,21.344731,15.824467,21.485563
6.052,51.576208,64.785296,69.41342,70.284847,57.489123,59.816756,62.173314,63.815351,21.290916,15.785206,21.460815
6.054,51.628812,64.866666,69.493549,70.36158,57.52254,59.848878,62.206119,63.845663,21.229737,15.744576,21.4304
6.056,51.688326,64.950153,69.573828,70.437668,57.570179,59.905346,62.262512,63.897744,21.16041,15.701357,21.393483
6.058,51.75025,65.033919,69.653018,70.512185,57.62714,59.978276,62.334823,63.964525,21.089306,15.656907,21.353943
6.06,51.814046,65.114558,69.728249,70.582631,57.688266,60.059741,62.415288,64.038823,21.017033,15.613312,21.312098
6.062,51.875478,65.190048,69.7977,70.647386,57.751517,60.146982,62.501215,64.11817,20.947602,15.571665,21.269839
6.064,51.935249,65.262303,69.862877,70.70773,57.820732,60.246249,62.598735,64.208262,20.881091,15.530656,21.227402
6.066,51.994295,65.330858,69.92385,70.763864,57.891173,60.348782,62.699232,64.301035,20.818478,15.491149,21.185721
6.068,52.051875,65.395029,69.980536,70.815866,57.957531,60.44486,62.793146,64.387552,20.761622,15.454177,21.146048
6.07,52.106982,65.45419,70.032334,70.863165,58.018846,60.532926,62.878886,64.466337,20.714087,15.420125,21.110706
6.072,52.160548,65.508927,70.079617,70.906065,58.077405,60.617055,62.960493,64.541163,20.672873,15.388435,21.078225
6.074,52.213192,65.560342,70.123673,70.945853,58.133169,60.696729,63.037587,64.611648,20.636834,15.358666,21.048119
6.076,52.263654,65.609268,70.165486,70.983515,58.186174,60.771696,63.110044,64.677652,20.605377,15.33048,21.020213
6.078,52.311304,65.653872,70.203046,71.017066,58.237057,60.843942,63.179825,64.74101,20.578285,15.304537,20.994404
6.08,52.359916,65.69596,70.238289,71.048409,58.285017,60.911165,63.244583,64.799541,20.554842,15.280207,20.970697
6.082,52.409901,65.73855,70.274479,71.080764,58.32886,60.969794,63.300724,64.849902,20.534946,15.256421,20.949107
6.084,52.465006,65.783573,70.31379,71.1163,58.367165,61.01634,63.344741,64.888831,20.517904,15.232584,20.930335
6.086,52.524717,65.829236,70.354396,71.153254,58.399709,61.0512,63.377046,64.916713,20.503479,15.209451,20.914011
6.088,52.587769,65.876158,70.39661,71.191819,58.429132,61.078968,63.402231,64.937815,20.490557,15.186424,20.898754
6.09,52.654592,65.92526,70.441036,71.232466,58.458229,61.104375,63.425031,64.956532,20.478841,15.162759,20.884503
6.092,52.72586,65.97643,70.487525,71.275009,58.487223,61.127723,63.445745,64.973118,20.467674,15.138486,20.87085
6.094,52.800954,66.029314,70.535861,71.319297,58.514918,61.147009,63.462371,64.985721,20.456115,15.113904,20.85731
6.096,52.879395,66.08491,70.586885,71.36615,58.543002,61.165304,63.47798,64.997256,20.443361,15.088346,20.843416
6.098,52.961355,66.144203,70.641433,71.416381,58.573099,61.18554,63.495503,65.010503,20.428302,15.061161,20.828727
6.1,53.047145,66.207425,70.699756,71.470247,58.604654,61.206379,63.513578,65.024107,20.410269,15.032344,20.812938
6.102,53.134893,66.273899,70.761223,71.527122,58.637497,61.227856,63.532265,65.038188,20.389298,15.002192,20.796184
6.104,53.224119,66.342928,70.82514,71.586312,58.672247,61.251723,63.553359,65.054563,20.36534,14.970886,20.7785
6.106,53.316587,66.41433,70.891328,71.647615,58.709341,61.278959,63.577848,65.074236,20.338521,14.938456,20.759507
6.108,53.411977,66.48966,70.961363,71.712531,58.748279,61.307315,63.603366,65.094822,20.308796,14.904446,20.739184
6.11,53.503063,66.566613,71.032904,71.778864,58.789409,61.339374,63.632673,65.119095,20.275237,14.869559,20.71755
6.112,53.588502,66.642283,71.103,71.84384,58.833253,61.378561,63.669412,65.150723,20.237537,14.834676,20.694416
6.114,53.658269,66.715269,71.170158,71.90605,58.880859,61.428283,63.717133,65.193228,20.193205,14.80013,20.668573
6.116,53.716292,66.787254,71.236045,71.967062,58.932337,61.487475,63.774661,65.245405,20.14409,14.765365,20.640801
6.118,53.767532,66.857595,71.300255,72.026503,58.985157,61.551035,63.836826,65.302207,20.093069,14.73088,20.612241
6.12,53.812312,66.925533,71.362266,72.083896,59.03672,61.613809,63.898404,65.358544,20.041172,14.697218,20.583413
6.122,53.852393,66.991088,71.42212,72.13928,59.087028,61.675836,63.959466,65.414487,19.990555,14.664335,20.55531
6.124,53.887616,67.054525,71.479984,72.192808,59.136993,61.738898,64.021802,65.471778,19.940744,14.632062,20.527724
6.126,53.918213,67.115542,71.535602,72.244245,59.185703,61.801107,64.083433,65.528483,19.891544,14.600679,20.500618
6.128,53.944115,67.173796,71.588671,72.293314,59.232298,61.860732,64.142552,65.582836,19.844372,14.570473,20.474412
6.13,53.964836,67.228583,71.638504,72.339379,59.276958,61.918872,64.200308,65.636002,19.799772,14.541626,20.449246
6.132,53.983881,67.280854,71.686012,72.383282,59.319943,61.975244,64.256403,65.687644,19.757234,14.513787,20.425177
6.134,54.001663,67.332035,71.732578,72.426297,59.361276,62.028559,64.309484,65.736366,19.716677,14.486502,20.402229
6.136,54.020885,67.383025,71.779078,72.469232,59.400929,62.077908,64.358598,65.78121,19.678753,14.4595,20.380239
6.138,54.041776,67.43243,71.824173,72.510851,59.438748,62.124268,64.404778,65.82332,19.643481,14.433269,20.359216
6.14,54.066219,67.481533,71.869082,72.55228,59.47502,62.167058,64.447399,65.8619,19.610834,14.407312,20.339392
6.142,54.09487,67.532086,71.91547,72.595055,59.510088,62.205391,64.485508,65.895782,19.580963,14.380968,20.320792
6.144,54.132497,67.585042,71.964264,72.640024,59.543771,62.237849,64.517646,65.923359,19.55504,14.3539,20.303768
6.146,54.177319,67.639401,72.014528,72.686317,59.575629,62.264332,64.543743,65.944664,19.532125,14.326504,20.287985
6.148,54.226862,67.695298,72.066318,72.734015,59.606955,62.287954,64.566937,65.962922,19.510517,14.298641,20.27289
6.15,54.280686,67.752942,72.119758,72.783264,59.639105,62.311921,64.590454,65.981446,19.489572,14.270144,20.258039
6.152,54.336994,67.812171,72.17472,72.833923,59.672238,62.336735,64.614838,66.000783,19.467572,14.241036,20.242489
6.154,54.397022,67.87295,72.231192,72.885975,59.705761,62.360952,64.638625,66.019434,19.445224,14.211376,20.22658
6.156,54.46103,67.93576,72.289529,72.93982,59.740091,62.385288,64.662445,66.038071,19.422774,14.181021,20.210386
6.158,54.530616,68.001095,72.3501,72.995864,59.775633,62.4104,64.68687,66.057307,19.40007,14.149818,20.19389
6.16,54.607562,68.069548,72.413476,73.054641,59.812148,62.435059,64.710635,66.075813,19.377315,14.117577,20.177185
6.162,54.687552,68.140384,72.478995,73.115506,59.84967,62.460058,64.734601,66.094489,19.353337,14.084531,20.159843
6.164,54.769713,68.212428,72.545544,73.177409,59.888552,62.487507,64.760962,66.115632,19.327939,14.051059,20.141809
6.166,54.851873,68.284753,72.612248,73.239519,59.929147,62.519239,64.791627,66.141228,19.299966,14.017449,20.12253
6.168,54.933714,68.358521,72.680217,73.302847,59.971568,62.554199,64.82551,66.170046,19.26918,13.983281,20.101886
6.17,55.013623,68.432913,72.748662,73.366698,60.015409,62.592396,64.862605,66.202209,19.23619,13.948885,20.080356
6.172,55.091427,68.506475,72.816192,73.429826,60.06021,62.634424,64.903506,66.238519,19.201001,13.914821,20.057952
6.174,55.162951,68.578102,72.88173,73.491285,60.105752,62.681161,64.949097,66.280059,19.16223,13.881519,20.034036
6.176,55.228669,68.648493,72.945907,73.551679,60.152523,62.733209,64.999996,66.327439,19.120206,13.848711,20.00876
6.178,55.291077,68.717869,73.009025,73.611188,60.199971,62.788421,65.054022,66.378238,19.077124,13.816304,19.983159
6.18,55.350234,68.786312,73.071272,73.669876,60.247415,62.844425,65.108761,66.429795,19.033054,13.784257,19.957273
6.182,55.407544,68.853969,73.132824,73.727864,60.294559,62.90004,65.163008,66.480782,18.98929,13.752504,19.931752
6.184,55.462509,68.920852,73.193623,73.785168,60.341829,62.956658,65.21818,66.532758,18.945585,13.721042,19.906472
6.186,55.514722,68.986644,73.253427,73.841513,60.388989,63.013941,65.27394,66.585357,18.901887,13.690009,19.881395
6.188,55.563645,69.051021,73.311994,73.896613,60.435775,63.071459,65.329858,66.638107,18.858253,13.659549,19.85658
6.19,55.607467,69.113359,73.368741,73.949927,60.482048,63.129675,65.386404,66.69157,18.814637,13.629909,19.832071
6.192,55.648685,69.173943,73.423907,74.001702,60.527957,63.188677,65.443668,66.745835,18.771449,13.600972,19.807989
6.194,55.689089,69.234012,73.478691,74.053016,60.573646,63.247089,65.50025,66.799258,18.728933,13.572249,19.784388
6.196,55.729957,69.29479,73.534276,74.104934,60.619252,63.303542,65.554764,66.850212,18.687728,13.543258,19.76157
6.198,55.772807,69.356012,73.590384,74.15724,60.664583,63.357901,65.607096,66.898593,18.648508,13.51408,19.739837
6.2,55.816915,69.417387,73.646749,74.209671,60.709719,63.410791,65.657864,66.945105,18.610672,13.484846,19.7189
6.202,55.861973,69.47944,73.703914,74.26265,60.755021,63.462436,65.707252,66.989913,18.573996,13.455394,19.698636
6.204,55.909017,69.542687,73.762425,74.3166,60.800841,63.513025,65.755408,67.033139,18.538685,13.425573,19.679199
6.206,55.958524,69.607296,73.822569,74.371722,60.847179,63.562173,65.801922,67.074251,18.504908,13.395428,19.660682
6.208,56.009451,69.672825,73.883768,74.42759,60.89385,63.610171,65.847133,67.113726,18.471855,13.364996,19.642745
6.21,56.061692,69.738772,73.945301,74.483684,60.940713,63.657622,65.891703,67.152444,18.439392,13.334255,19.625382
6.212,56.114515,69.804694,74.00653,74.539539,60.987639,63.705046,65.936205,67.19117,18.40727,13.303183,19.608026
6.214,56.167804,69.870761,74.067699,74.595325,61.034651,63.752171,65.980344,67.229503,18.375453,13.271758,19.590592
6.216,56.221834,69.937097,74.12899,74.651186,61.081819,63.798942,66.024056,67.267365,18.343838,13.240027,19.573375
6.218,56.276616,70.003742,74.190462,74.707179,61.129202,63.845441,66.06742,67.304877,18.312421,13.208052,19.556384
6.22,56.333009,70.070899,74.252347,74.763516,61.176939,63.891676,66.110433,67.342014,18.281487,13.175836,19.539766
6.222,56.390876,70.138997,74.315099,74.820589,61.225235,63.937474,66.152887,67.378412,18.251003,13.143241,19.523482
6.224,56.448672,70.207139,74.37775,74.877549,61.273612,63.983094,66.19511,67.414664,18.220673,13.110478,19.507083
6.226,56.50629,70.274281,74.439178,74.933414,61.32152,64.028852,66.237495,67.451478,18.190422,13.077803,19.490558
6.228,56.562119,70.339776,74.498681,74.987555,61.368641,64.075007,66.280354,67.489371,18.159507,13.045347,19.473549
6.23,56.616474,70.40425,74.556924,75.040541,61.415337,64.121446,66.323529,67.528009,18.128122,13.012918,19.456153
6.232,56.669938,70.467643,74.613869,75.092383,61.46148,64.16795,66.366797,67.567147,18.096726,12.980645,19.438611
6.234,56.722297,70.52982,74.669402,75.143024,61.506896,64.214305,66.409943,67.60657,18.065279,12.948685,19.420883
6.236,56.772963,70.590456,74.72315,75.192151,61.551439,64.260464,66.452888,67.646294,18.033896,12.917072,19.402965
6.238,56.822375,70.649511,74.775038,75.239671,61.595185,64.306579,66.495771,67.686499,18.002509,12.885696,19.384856
6.24,56.871189,70.707765,74.826015,75.286435,61.638309,64.352467,66.538502,67.726813,17.970955,12.854685,19.366538
6.242,56.919634,70.766014,74.877052,75.333318,61.680988,64.397935,66.580986,67.766848,17.939417,12.824174,19.348062
6.244,56.968475,70.824522,74.928449,75.380602,61.723276,64.4429,66.623172,67.80646,17.90822,12.794217,19.329544
6.246,57.017449,70.882856,74.979681,75.427813,61.765078,64.487468,66.665115,67.845862,17.877166,12.764739,19.3109
6.248,57.066537,70.941051,75.030837,75.475004,61.806415,64.531681,66.706854,67.885074,17.846082,12.735719,19.292018
6.25,57.115554,70.999145,75.082015,75.522232,61.847305,64.575576,66.748428,67.924118,17.815017,12.707138,19.272994
6.252,57.164023,71.056625,75.132656,75.568987,61.88753,64.619144,66.789844,67.963134,17.783948,12.679027,19.253908
6.254,57.212793,71.113669,75.182929,75.615437,61.927166,64.662372,66.831083,68.002064,17.752952,12.651382,19.234733
6.256,57.262235,71.171348,75.234022,75.662654,61.966673,64.705301,66.872146,68.040618,17.722099,12.624125,19.215471
6.258,57.313219,71.230725,75.287112,75.7117,62.006506,64.747966,66.913033,68.078512,17.691366,12.597181,19.196122
6.26,57.366674,71.291899,75.34236,75.762727,62.046531,64.790193,66.953555,68.115532,17.660803,12.57066,19.176712
6.262,57.421852,71.354378,75.399192,75.815211,62.086646,64.832075,66.993829,68.151925,17.630229,12.544525,19.157148
6.264,57.478453,71.418029,75.457357,75.868921,62.127117,64.873935,67.034195,68.18807,17.599585,12.518565,19.137353
6.266,57.536681,71.482728,75.516624,75.923648,62.168196,64.916077,67.07498,68.224331,17.568721,12.492582,19.117442
6.268,57.596723,71.548834,75.577449,75.979877,62.209582,64.9581,67.115855,68.260343,17.537565,12.46678,19.097465
6.27,57.657966,71.616121,75.639578,76.037321,62.251395,65.000179,67.156928,68.296227,17.506065,12.44109,19.077402
6.272,57.720288,71.683982,75.702254,76.095169,62.294103,65.042953,67.198708,68.332549,17.474267,12.415191,19.057252
6.274,57.783179,71.751847,75.764766,76.152651,62.338161,65.08704,67.241686,68.369852,17.441769,12.388775,19.037013
6.276,57.846417,71.819992,75.827461,76.210084,62.383549,65.132385,67.285845,68.408065,17.408341,12.361885,19.016641
6.278,57.910106,71.888457,75.890389,76.267575,62.430048,65.17872,67.330946,68.446972,17.37448,12.33464,18.99635
6.28,57.974245,71.95698,75.95321,76.32486,62.477527,65.225911,67.376837,68.486497,17.340313,12.307079,18.976204
6.282,58.038878,72.025383,76.015685,76.381771,62.525857,65.273822,67.42337,68.526553,17.305773,12.279246,18.956168
6.284,58.10421,72.094465,76.078709,76.439194,62.57504,65.322371,67.470497,68.566986,17.270842,12.251216,18.936243
6.286,58.16899,72.163527,76.141525,76.496338,62.625145,65.371716,67.51835,68.607999,17.235635,12.22289,18.916411
6.288,58.233184,72.231327,76.202759,76.551813,62.676225,65.42206,67.567075,68.649888,17.200191,12.194118,18.896611
6.29,58.295153,72.296726,76.26114,76.60432,62.728408,65.473681,67.616893,68.693001,17.164358,12.164737,18.877292
6.292,58.354469,72.3601,76.316962,76.654087,62.782296,65.527246,67.66845,68.73787,17.128031,12.134567,18.858546
6.294,58.412262,72.421805,76.370761,76.701742,62.837143,65.581838,67.720891,68.783678,17.091868,12.103916,18.8402
6.296,58.468684,72.481939,76.422855,76.74773,62.89186,65.636166,67.772999,68.829319,17.055896,12.07319,18.822224
6.298,58.523477,72.540574,76.473489,76.792409,62.945578,65.689202,67.823812,68.873914,17.020702,12.042723,18.804725
6.3,58.576557,72.597617,76.52232,76.835364,62.999335,65.742207,67.874549,68.918549,16.986348,12.012196,18.787686
6.302,58.628725,72.65313,76.569572,76.876819,63.052578,65.794489,67.924517,68.962621,16.952959,11.98173,18.771444
6.304,58.680058,72.707226,76.615649,76.917215,63.104211,65.844696,67.972383,69.004964,16.92052,11.951618,18.756053
6.306,58.730534,72.759937,76.66084,76.956871,63.153267,65.891646,68.016979,69.044558,16.889473,11.922121,18.741243
6.308,58.780101,72.810871,76.704629,76.995256,63.200141,65.93587,68.058818,69.081888,16.859871,11.893144,18.726982
6.31,58.829641,72.86048,76.74741,77.032757,63.245143,65.977688,68.09823,69.117197,16.831474,11.86459,18.713435
6.312,58.879212,72.909402,76.789822,77.070012,63.288401,66.017178,68.13531,69.150507,16.804297,11.836404,18.700638
6.314,58.928844,72.958089,76.832279,77.107431,63.330135,66.054568,68.170296,69.181976,16.77778,11.808532,18.688117
6.316,58.978455,73.005802,76.873881,77.144081,63.370797,66.090622,68.203904,69.212273,16.75187,11.780968,18.675834
6.318,59.029599,73.053072,76.915385,77.180763,63.409658,66.124223,68.235067,69.240455,16.726789,11.753763,18.663939
6.32,59.082276,73.100743,76.957944,77.218681,63.445785,66.153918,68.262406,69.265285,16.702501,11.72697,18.652433
6.322,59.138256,73.149441,77.002507,77.258861,63.478088,66.178094,68.284377,69.285384,16.680012,11.70071,18.641467
6.324,59.197655,73.198339,77.048406,77.300745,63.50563,66.195676,68.299909,69.299818,16.659466,11.675303,18.631087
6.326,59.260001,73.247918,77.095641,77.34413,63.530528,66.209409,68.311682,69.310953,16.63894,11.650246,18.620529
6.328,59.32523,73.298997,77.144478,77.389031,63.555322,66.222534,68.322863,69.32158,16.61839,11.624896,18.609778
6.33,59.394279,73.352227,77.195132,77.435464,63.581999,66.237558,68.335902,69.333858,16.596787,11.598733,18.59836
6.332,59.46721,73.407011,77.247443,77.483426,63.608593,66.251852,68.348212,69.345503,16.574089,11.572184,18.586258
6.334,59.543508,73.463512,77.301412,77.532897,63.635806,66.266486,68.36086,69.357461,16.550036,11.545175,18.573344
6.336,59.623071,73.522134,77.357107,77.583858,63.665144,66.283603,68.375973,69.37161,16.524669,11.517458,18.559644
6.338,59.707472,73.583329,77.414723,77.636429,63.6978,66.304872,68.395206,69.389417,16.496889,11.488798,18.544499
6.34,59.797002,73.647423,77.474892,77.691305,63.732625,66.328486,68.416771,69.409332,16.466597,11.45919,18.527851
6.342,59.888256,73.713633,77.536681,77.74754,63.769986,66.355202,68.441414,69.431974,16.434373,11.428842,18.509999
6.344,59.98107,73.781021,77.598873,77.803884,63.81074,66.386544,68.47064,69.458621,16.400278,11.397966,18.490969
